Time (s),Main Avg Current (mA),Main Avg Voltage (V),Main Max Current (mA)
20.3612,2652.5,2.195,2652.5
20.3614,2652.5,2.195,2652.5
20.3616,2651.5,2.195,2652.5
20.3618,2651,2.195,2652.5
20.3620,2650,2.1965,2652.5
20.3622,2649.5,2.195,2652.5
20.3624,2649,2.195,2652.5
20.3626,2648.5,2.195,2652.5
20.3628,2648,2.195,2652.5
20.3630,2647.5,2.1945,2652.5
20.3632,2646.5,2.1945,2652.5
20.3634,2646,2.196,2652.5
20.3636,2644.5,2.195,2652.5
20.3638,2643,2.195,2652.5
20.3640,2642,2.195,2652.5
20.3642,2640.5,2.195,2652.5
20.3644,2639.5,2.1945,2652.5
20.3646,2638,2.196,2652.5
20.3648,2637.5,2.195,2652.5
20.3650,2637,2.195,2652.5
20.3652,2636,2.195,2652.5
20.3654,2635,2.1945,2652.5
20.3656,2633,2.196,2652.5
20.3658,2631.5,2.195,2652.5
20.3660,2629.5,2.195,2652.5
20.3662,2627,2.1945,2652.5
20.3664,2625,2.1945,2652.5
20.3666,2622,2.1945,2652.5
20.3668,2620.5,2.195,2652.5
20.3670,2618.5,2.195,2652.5
20.3672,2615.5,2.195,2652.5
20.3674,2613,2.196,2652.5
20.3676,2610.5,2.196,2652.5
20.3678,2606,2.194,2652.5
20.3680,2604,2.196,2652.5
20.3682,2601,2.194,2652.5
20.3684,2599.5,2.195,2652.5
20.3686,2597,2.196,2652.5
20.3688,2596.5,2.195,2652.5
20.3690,2595.5,2.196,2652.5
20.3692,2595,2.195,2652.5
20.3694,2593,2.195,2652.5
20.3696,2592,2.196,2652.5
20.3698,2590,2.195,2652.5
20.3700,2586.5,2.196,2652.5
20.3702,2582.5,2.1945,2652.5
20.3704,2578.5,2.1945,2652.5
20.3706,2576,2.194,2652.5
20.3708,2572.5,2.195,2652.5
20.3710,2572,2.195,2652.5
20.3712,2572.5,2.195,2652.5
20.3714,2570.5,2.195,2652.5
20.3716,2611,2.196,2652.5
20.3718,2519,2.195,2652.5
20.3720,2558,2.195,2652.5
20.3722,2554.5,2.1945,2652.5
20.3724,2552.5,2.196,2652.5
20.3726,2551,2.195,2652.5
20.3728,2551,2.1945,2652.5
20.3730,2547,2.1945,2652.5
20.3732,2547.5,2.1965,2652.5
20.3734,2545,2.194,2652.5
20.3736,2542,2.196,2652.5
20.3738,2540.5,2.195,2652.5
20.3740,2542,2.196,2652.5
20.3742,2544,2.1945,2652.5
20.3744,2545,2.195,2652.5
20.3746,2546,2.196,2652.5
20.3748,2543,2.196,2652.5
20.3750,2539.5,2.194,2652.5
20.3752,2538,2.196,2652.5
20.3754,2541,2.195,2652.5
20.3756,2542.5,2.195,2652.5
20.3758,2544.5,2.1945,2652.5
20.3760,2547.5,2.195,2652.5
20.3762,2548,2.195,2652.5
20.3764,2544.5,2.196,2652.5
20.3766,2543.5,2.195,2652.5
20.3768,2543.5,2.196,2652.5
20.3770,2543,2.1945,2652.5
20.3772,2544.5,2.195,2652.5
20.3774,2548.5,2.1945,2652.5
20.3776,2548,2.196,2652.5
20.3778,2544,2.194,2652.5
20.3780,2538,2.194,2652.5
20.3782,2539,2.1945,2652.5
20.3784,2535.5,2.195,2652.5
20.3786,2532.5,2.194,2652.5
20.3788,2532,2.196,2652.5
20.3790,2531.5,2.1965,2652.5
20.3792,2525,2.1945,2652.5
20.3794,2513.5,2.1945,2652.5
20.3796,2506.5,2.1945,2652.5
20.3798,2504,2.1945,2652.5
20.3800,2498,2.195,2652.5
20.3802,2485.5,2.1945,2652.5
20.3804,2471,2.1945,2652.5
20.3806,2468,2.1945,2652.5
20.3808,2477,2.195,2652.5
20.3810,2472,2.195,2652.5
20.3812,2462,2.194,2652.5
20.3814,2459,2.194,2652.5
20.3816,2467.5,2.196,2652.5
20.3818,2463.5,2.195,2652.5
20.3820,2461.5,2.195,2652.5
20.3822,2467,2.194,2652.5
20.3824,2472.5,2.1945,2652.5
20.3826,2477,2.195,2652.5
20.3828,2479,2.195,2652.5
20.3830,2481,2.195,2652.5
20.3832,2483,2.1945,2652.5
20.3834,2484,2.195,2652.5
20.3836,2485,2.195,2652.5
20.3838,2482.5,2.196,2652.5
20.3840,2483.5,2.195,2652.5
20.3842,2485,2.195,2652.5
20.3844,2485,2.195,2652.5
20.3846,2492,2.1945,2652.5
20.3848,2486.5,2.196,2652.5
20.3850,2481,2.196,2652.5
20.3852,2479.5,2.195,2652.5
20.3854,2473.5,2.1945,2652.5
20.3856,2472.5,2.196,2652.5
20.3858,2464,2.195,2652.5
20.3860,2458.5,2.194,2652.5
20.3862,2460,2.196,2652.5
20.3864,2450.5,2.195,2652.5
20.3866,2452,2.195,2652.5
20.3868,2450.5,2.1965,2652.5
20.3870,2442,2.194,2652.5
20.3872,2436.5,2.196,2652.5
20.3874,2435,2.196,2652.5
20.3876,2427,2.195,2652.5
20.3878,2401.5,2.1945,2652.5
20.3880,2402,2.196,2652.5
20.3882,2397.5,2.195,2652.5
20.3884,2391.5,2.194,2652.5
20.3886,2388,2.195,2652.5
20.3888,2383.5,2.195,2652.5
20.3890,2369,2.1945,2652.5
20.3892,2360,2.195,2652.5
20.3894,2358,2.194,2652.5
20.3896,2394,2.1945,2652.5
20.3898,2306.5,2.1945,2652.5
20.3900,2341,2.196,2652.5
20.3902,2312,2.195,2652.5
20.3904,2298,2.1945,2652.5
20.3906,2287,2.195,2652.5
20.3908,2272,2.1945,2652.5
20.3910,2260,2.195,2652.5
20.3912,2236,2.195,2652.5
20.3914,2187.5,2.1965,2652.5
20.3916,2134.5,2.1965,2652.5
20.3918,2118,2.195,2652.5
20.3920,2112.5,2.1945,2652.5
20.3922,2096.5,2.1945,2652.5
20.3924,2063.5,2.1945,2652.5
20.3926,2069.5,2.195,2652.5
20.3928,2070.5,2.195,2652.5
20.3930,2074.5,2.196,2652.5
20.3932,2117,2.195,2652.5
20.3934,2095.5,2.195,2652.5
20.3936,2070.5,2.1965,2652.5
20.3938,2060,2.196,2652.5
20.3940,2046,2.195,2652.5
20.3942,2063,2.196,2652.5
20.3944,2076,2.195,2652.5
20.3946,2077,2.197,2652.5
20.3948,2057.5,2.1965,2652.5
20.3950,2045.0001,2.196,2652.5
20.3952,2036,2.1965,2652.5
20.3954,2040.4999,2.1965,2652.5
20.3956,2029.5,2.1965,2652.5
20.3958,1990,2.196,2652.5
20.3960,1944,2.1945,2652.5
20.3962,1976.5,2.196,2652.5
20.3964,1965,2.196,2652.5
20.3966,1947,2.195,2652.5
20.3968,1964,2.195,2652.5
20.3970,1967,2.1945,2652.5
20.3972,2000.5,2.196,2652.5
20.3974,2009.0001,2.1945,2652.5
20.3976,2029.5,2.1945,2652.5
20.3978,2031.5001,2.1965,2652.5
20.3980,2046.9999,2.196,2652.5
20.3982,2054.5,2.1945,2652.5
20.3984,2054.5,2.196,2652.5
20.3986,2061.5,2.196,2652.5
20.3988,1996,2.1945,2652.5
20.3990,1943.5,2.1975,2652.5
20.3992,1872.5,2.197,2652.5
20.3994,1327.5,2.2065,2652.5
20.3996,276.5,2.2035,2652.5
20.3998,44.5,2.2015,2652.5
20.4000,27.91,2.2,2652.5
20.4002,13.012,2.2,2652.5
20.4004,9.784,2.2005,2652.5
20.4006,8.958,2.1995,2652.5
20.4008,8.54,2.2,2652.5
20.4010,10.432,2.2,2652.5
20.4012,9.646,2.2,2652.5
20.4014,9.368,2.2005,2652.5
20.4016,8.758,2.2005,2652.5
20.4018,9.444,2.2,2652.5
20.4020,8.664,2.2,2652.5
20.4022,7.954,2.2,2652.5
20.4024,7.182,2.2,2652.5
20.4026,7.544,2.2,2652.5
20.4028,7.074,2.2005,2652.5
20.4030,6.772,2.2,2652.5
20.4032,6.71,2.2,2652.5
20.4034,6.974,2.2,2652.5
20.4036,6.656,2.2,2652.5
20.4038,6.594,2.2005,2652.5
20.4040,6.51,2.1995,2652.5
20.4042,6.826,2.2,2652.5
20.4046,6.17,2.1995,2652.5
20.4048,6.68,2.2,2652.5
20.4050,6.332,2.2,2652.5
20.4052,6.518,2.2,2652.5
20.4054,6.208,2.1995,2652.5
20.4056,6.826,2.2,2652.5
20.4058,6.44,2.1995,2652.5
20.4060,5.976,2.1995,2652.5
20.4062,6.532,2.2,2652.5
20.4064,6.332,2.1995,2652.5
20.4066,6.302,2.2,2652.5
20.4068,6.092,2.2,2652.5
20.4070,6.41,2.1995,2652.5
20.4072,5.954,2.1995,2652.5
20.4074,6.47,2.1985,2652.5
20.4076,6,2.1995,2652.5
20.4078,6.348,2.1995,2652.5
20.4080,6.402,2.1995,2652.5
20.4082,6.224,2.1995,2652.5
20.4084,6.37,2.1995,2652.5
20.4086,5.698,2.1995,2652.5
20.4088,6.254,2.1985,2652.5
20.4090,6,2.1985,2652.5
20.4092,6.294,2.1985,2652.5
20.4094,6.17,2.1995,2652.5
20.4096,6.17,2.1995,2652.5
20.4098,5.976,2.1985,2652.5
20.4100,5.922,2.1995,2652.5
20.4102,6.494,2.1995,2652.5
20.4104,6.146,2.1995,2652.5
20.4106,5.622,2.1985,2652.5
20.4108,6.254,2.1995,2652.5
20.4110,6.038,2.1985,2652.5
20.4112,6.016,2.1995,2652.5
20.4114,6.186,2.1985,2652.5
20.4116,6.486,2.1995,2652.5
20.4118,5.746,2.1985,2652.5
20.4120,5.838,2.1985,2652.5
20.4122,6.448,2.1985,2652.5
20.4124,6.07,2.1985,2652.5
20.4126,5.8,2.1985,2652.5
20.4128,5.992,2.198,2652.5
20.4130,6.356,2.1985,2652.5
20.4132,5.86,2.1985,2652.5
20.4134,6.054,2.1985,2652.5
20.4136,6.286,2.198,2652.5
20.4138,5.706,2.1985,2652.5
20.4140,6.216,2.1995,2652.5
20.4142,5.854,2.198,2652.5
20.4144,6.024,2.1985,2652.5
20.4146,6.17,2.1985,2652.5
20.4148,6.024,2.1985,2652.5
20.4150,6.178,2.198,2652.5
20.4152,5.876,2.1985,2652.5
20.4154,5.822,2.1985,2652.5
20.4156,5.992,2.198,2652.5
20.4158,6.038,2.198,2652.5
20.4160,6.254,2.198,2652.5
20.4162,5.83,2.198,2652.5
20.4164,5.976,2.1985,2652.5
20.4166,6.124,2.1985,2652.5
20.4168,5.968,2.1985,2652.5
20.4170,6.116,2.1985,2652.5
20.4172,5.884,2.198,2652.5
20.4174,6.046,2.198,2652.5
20.4176,5.876,2.1985,2652.5
20.4178,6.186,2.198,2652.5
20.4180,6.078,2.198,2652.5
20.4182,5.676,2.1985,2652.5
20.4184,6.192,2.198,2652.5
20.4186,5.568,2.1985,2652.5
20.4188,6.108,2.198,2652.5
20.4190,6.008,2.1985,2652.5
20.4192,6.092,2.198,2652.5
20.4194,5.914,2.1985,2652.5
20.4196,6.07,2.1985,2652.5
20.4198,5.676,2.1985,2652.5
20.4200,5.784,2.1985,2652.5
20.4202,6.478,2.1985,2652.5
20.4204,6.108,2.198,2652.5
20.4206,5.606,2.198,2652.5
20.4208,5.784,2.198,2652.5
20.4210,5.992,2.1975,2652.5
20.4212,5.962,2.1985,2652.5
20.4214,6.232,2.1985,2652.5
20.4216,5.59,2.1985,2652.5
20.4218,5.946,2.198,2652.5
20.4220,6.008,2.198,2652.5
20.4222,6.138,2.198,2652.5
20.4224,6.108,2.198,2652.5
20.4226,5.576,2.198,2652.5
20.4228,5.884,2.1985,2652.5
20.4230,6.324,2.1975,2652.5
20.4232,5.914,2.198,2652.5
20.4234,5.738,2.198,2652.5
20.4236,5.776,2.198,2652.5
20.4238,6.054,2.198,2652.5
20.4240,6.038,2.198,2652.5
20.4242,5.822,2.1985,2652.5
20.4244,6,2.198,2652.5
20.4246,6.046,2.198,2652.5
20.4248,5.622,2.198,2652.5
20.4250,6.078,2.1975,2652.5
20.4252,5.876,2.198,2652.5
20.4254,6.146,2.198,2652.5
20.4256,6.124,2.198,2652.5
20.4258,5.536,2.1985,2652.5
20.4260,5.8,2.198,2652.5
20.4262,6.178,2.198,2652.5
20.4264,5.884,2.198,2652.5
20.4266,6.1,2.198,2652.5
20.4268,6,2.198,2652.5
20.4270,5.528,2.198,2652.5
20.4272,6.078,2.1975,2652.5
20.4274,5.822,2.198,2652.5
20.4276,5.938,2.198,2652.5
20.4278,6.162,2.198,2652.5
20.4280,5.636,2.198,2652.5
20.4282,5.922,2.1985,2652.5
20.4284,6.178,2.198,2652.5
20.4286,5.854,2.198,2652.5
20.4288,5.668,2.198,2652.5
20.4290,6.316,2.198,2652.5
20.4292,5.684,2.198,2652.5
20.4294,6.116,2.198,2652.5
20.4296,5.652,2.198,2652.5
20.4298,6.186,2.198,2652.5
20.4300,5.522,2.198,2652.5
20.4302,5.59,2.198,2652.5
20.4304,6.526,2.198,2652.5
20.4306,5.474,2.198,2652.5
20.4308,5.806,2.1975,2652.5
20.4310,5.984,2.198,2652.5
20.4312,6.078,2.1975,2652.5
20.4314,5.922,2.198,2652.5
20.4316,6.178,2.198,2652.5
20.4318,5.714,2.1985,2652.5
20.4320,5.9,2.1975,2652.5
20.4322,5.822,2.198,2652.5
20.4324,5.876,2.198,2652.5
20.4326,5.892,2.198,2652.5
20.4328,6.2,2.198,2652.5
20.4330,5.684,2.1975,2652.5
20.4332,5.908,2.198,2652.5
20.4334,6.024,2.198,2652.5
20.4336,5.968,2.198,2652.5
20.4338,5.984,2.1985,2652.5
20.4340,5.498,2.1975,2652.5
20.4342,6.124,2.198,2652.5
20.4344,5.698,2.198,2652.5
20.4346,5.636,2.1975,2652.5
20.4348,6.108,2.198,2652.5
20.4350,5.738,2.198,2652.5
20.4352,6.2,2.198,2652.5
20.4354,5.706,2.198,2652.5
20.4356,6.232,2.198,2652.5
20.4358,5.59,2.198,2652.5
20.4360,5.884,2.198,2652.5
20.4362,5.946,2.1985,2652.5
20.4364,6.016,2.198,2652.5
20.4366,5.482,2.1975,2652.5
20.4368,6.302,2.198,2652.5
20.4370,5.606,2.198,2652.5
20.4372,6.124,2.198,2652.5
20.4374,5.706,2.198,2652.5
20.4376,6.316,2.198,2652.5
20.4378,5.522,2.198,2652.5
20.4380,6.024,2.198,2652.5
20.4382,5.622,2.1975,2652.5
20.4384,6.07,2.198,2652.5
20.4386,6.062,2.1975,2652.5
20.4388,5.722,2.198,2652.5
20.4390,6.062,2.198,2652.5
20.4392,5.644,2.198,2652.5
20.4394,5.676,2.198,2652.5
20.4396,6.186,2.198,2652.5
20.4398,6.2,2.1975,2652.5
20.4400,5.482,2.198,2652.5
20.4402,6.1,2.198,2652.5
20.4404,5.684,2.1975,2652.5
20.4406,5.9,2.1985,2652.5
20.4408,6.054,2.1975,2652.5
20.4410,5.9,2.198,2652.5
20.4412,5.938,2.198,2652.5
20.4414,5.854,2.198,2652.5
20.4416,5.552,2.198,2652.5
20.4418,6.024,2.1975,2652.5
20.4420,5.838,2.198,2652.5
20.4422,5.86,2.1975,2652.5
20.4424,5.854,2.198,2652.5
20.4426,5.768,2.1975,2652.5
20.4428,5.66,2.1975,2652.5
20.4430,6.27,2.198,2652.5
20.4432,6.208,2.198,2652.5
20.4434,5.776,2.198,2652.5
20.4436,6.038,2.198,2652.5
20.4438,5.374,2.1975,2652.5
20.4440,5.838,2.1975,2652.5
20.4442,5.9,2.198,2652.5
20.4444,5.992,2.1975,2652.5
20.4446,6.124,2.1985,2652.5
20.4448,5.776,2.1975,2652.5
20.4450,5.76,2.198,2652.5
20.4452,6.2,2.198,2652.5
20.4454,6.084,2.198,2652.5
20.4456,5.352,2.1975,2652.5
20.4458,6.224,2.1975,2652.5
20.4460,5.698,2.1975,2652.5
20.4462,5.976,2.198,2652.5
20.4464,6.192,2.198,2652.5
20.4466,5.722,2.198,2652.5
20.4468,5.992,2.1975,2652.5
20.4470,5.884,2.198,2652.5
20.4472,5.93,2.198,2652.5
20.4474,5.676,2.198,2652.5
20.4476,5.838,2.198,2652.5
20.4478,6.37,2.198,2652.5
20.4480,5.884,2.198,2652.5
20.4482,5.752,2.198,2652.5
20.4484,5.83,2.1975,2652.5
20.4486,6.016,2.1975,2652.5
20.4488,5.968,2.198,2652.5
20.4490,5.738,2.198,2652.5
20.4492,5.976,2.1985,2652.5
20.4494,5.868,2.1975,2652.5
20.4496,5.854,2.198,2652.5
20.4498,5.992,2.198,2652.5
20.4500,5.8,2.198,2652.5
20.4502,6.03,2.198,2652.5
20.4504,6.024,2.198,2652.5
20.4506,5.714,2.198,2652.5
20.4508,6.016,2.198,2652.5
20.4510,5.746,2.198,2652.5
20.4512,6.062,2.198,2652.5
20.4514,5.992,2.198,2652.5
20.4516,5.776,2.198,2652.5
20.4518,5.822,2.198,2652.5
20.4520,5.76,2.198,2652.5
20.4522,5.876,2.1975,2652.5
20.4524,6.124,2.198,2652.5
20.4526,5.876,2.1975,2652.5
20.4528,5.668,2.198,2652.5
20.4530,6.078,2.198,2652.5
20.4532,5.776,2.198,2652.5
20.4534,6.208,2.1975,2652.5
20.4536,5.776,2.198,2652.5
20.4538,5.76,2.198,2652.5
20.4540,5.984,2.198,2652.5
20.4542,5.946,2.198,2652.5
20.4544,5.922,2.1975,2652.5
20.4546,5.846,2.198,2652.5
20.4548,5.846,2.198,2652.5
20.4550,6.146,2.198,2652.5
20.4552,5.706,2.198,2652.5
20.4554,5.722,2.1975,2652.5
20.4556,6.092,2.198,2652.5
20.4558,5.698,2.198,2652.5
20.4560,5.914,2.198,2652.5
20.4562,5.914,2.198,2652.5
20.4564,5.86,2.198,2652.5
20.4566,6.378,2.1975,2652.5
20.4568,5.112,2.198,2652.5
20.4570,6.602,2.198,2652.5
20.4572,5.752,2.198,2652.5
20.4574,5.668,2.198,2652.5
20.4576,6.046,2.198,2652.5
20.4578,5.822,2.1985,2652.5
20.4580,5.984,2.198,2652.5
20.4582,5.56,2.198,2652.5
20.4584,6.532,2.198,2652.5
20.4586,5.528,2.1975,2652.5
20.4588,6.146,2.198,2652.5
20.4590,5.752,2.198,2652.5
20.4592,5.954,2.1975,2652.5
20.4594,6,2.198,2652.5
20.4596,5.614,2.198,2652.5
20.4598,6.232,2.198,2652.5
20.4600,5.39,2.198,2652.5
20.4602,6.162,2.1975,2652.5
20.4604,5.892,2.198,2652.5
20.4606,6.286,2.1975,2652.5
20.4608,5.884,2.1985,2652.5
20.4610,5.776,2.1975,2652.5
20.4612,5.614,2.198,2652.5
20.4614,6.07,2.1975,2652.5
20.4616,5.768,2.198,2652.5
20.4618,6.216,2.198,2652.5
20.4620,5.73,2.198,2652.5
20.4622,5.76,2.1975,2652.5
20.4624,5.914,2.1975,2652.5
20.4626,6,2.198,2652.5
20.4628,5.706,2.1975,2652.5
20.4630,5.884,2.198,2652.5
20.4632,6.108,2.198,2652.5
20.4634,5.8,2.198,2652.5
20.4636,5.792,2.198,2652.5
20.4638,6.324,2.198,2652.5
20.4640,5.838,2.1975,2652.5
20.4642,5.482,2.198,2652.5
20.4644,6.348,2.198,2652.5
20.4646,5.63,2.1975,2652.5
20.4648,5.908,2.198,2652.5
20.4650,6.138,2.198,2652.5
20.4652,5.822,2.1975,2652.5
20.4654,6.024,2.198,2652.5
20.4656,5.498,2.198,2652.5
20.4658,6.046,2.1975,2652.5
20.4660,6.07,2.198,2652.5
20.4662,5.576,2.198,2652.5
20.4664,6.03,2.198,2652.5
20.4666,5.876,2.198,2652.5
20.4668,5.792,2.198,2652.5
20.4670,6.208,2.198,2652.5
20.4672,5.806,2.1975,2652.5
20.4674,5.676,2.198,2652.5
20.4676,5.93,2.198,2652.5
20.4678,6.054,2.198,2652.5
20.4680,5.552,2.198,2652.5
20.4682,6.208,2.198,2652.5
20.4684,6.108,2.198,2652.5
20.4686,5.698,2.198,2652.5
20.4688,5.714,2.198,2652.5
20.4690,6.186,2.1975,2652.5
20.4692,5.63,2.198,2652.5
20.4694,6.024,2.1975,2652.5
20.4696,5.868,2.198,2652.5
20.4698,5.73,2.1975,2652.5
20.4700,5.992,2.198,2652.5
20.4702,5.908,2.198,2652.5
20.4704,6.262,2.198,2652.5
20.4706,5.698,2.198,2652.5
20.4708,5.676,2.198,2652.5
20.4710,6.37,2.198,2652.5
20.4712,5.536,2.1975,2652.5
20.4714,5.938,2.198,2652.5
20.4716,6.24,2.198,2652.5
20.4718,5.436,2.198,2652.5
20.4720,5.962,2.1975,2652.5
20.4722,6.146,2.198,2652.5
20.4724,5.698,2.1975,2652.5
20.4726,5.792,2.1975,2652.5
20.4728,6.078,2.198,2652.5
20.4730,5.792,2.198,2652.5
20.4732,6.34,2.1985,2652.5
20.4734,5.792,2.198,2652.5
20.4736,5.69,2.198,2652.5
20.4738,5.868,2.198,2652.5
20.4740,5.846,2.1975,2652.5
20.4742,5.93,2.1975,2652.5
20.4744,6.092,2.198,2652.5
20.4746,5.636,2.198,2652.5
20.4748,5.8,2.198,2652.5
20.4750,6.41,2.198,2652.5
20.4752,5.854,2.198,2652.5
20.4754,5.63,2.198,2652.5
20.4756,5.738,2.1985,2652.5
20.4758,6.062,2.198,2652.5
20.4760,5.884,2.1975,2652.5
20.4762,5.768,2.198,2652.5
20.4764,6.024,2.198,2652.5
20.4766,5.42,2.1975,2652.5
20.4768,6.316,2.198,2652.5
20.4770,6.1,2.198,2652.5
20.4772,5.8,2.1975,2652.5
20.4774,5.938,2.1975,2652.5
20.4776,6.138,2.198,2652.5
20.4778,5.922,2.1985,2652.5
20.4780,5.992,2.198,2652.5
20.4782,5.582,2.198,2652.5
20.4784,6.016,2.198,2652.5
20.4786,5.76,2.198,2652.5
20.4788,5.838,2.1975,2652.5
20.4790,5.83,2.198,2652.5
20.4792,6.108,2.198,2652.5
20.4794,5.876,2.198,2652.5
20.4796,6.092,2.1975,2652.5
20.4798,5.992,2.1985,2652.5
20.4800,5.83,2.198,2652.5
20.4802,6.178,2.198,2652.5
20.4804,5.42,2.1985,2652.5
20.4806,6.348,2.198,2652.5
20.4808,5.69,2.198,2652.5
20.4810,5.93,2.1975,2652.5
20.4812,6.07,2.1975,2652.5
20.4814,5.83,2.198,2652.5
20.4816,5.83,2.198,2652.5
20.4818,5.746,2.198,2652.5
20.4820,6.456,2.1985,2652.5
20.4822,5.792,2.1975,2652.5
20.4824,5.76,2.198,2652.5
20.4826,6.286,2.198,2652.5
20.4828,5.76,2.1975,2652.5
20.4830,5.76,2.198,2652.5
20.4832,5.984,2.1975,2652.5
20.4834,6.146,2.1985,2652.5
20.4836,5.93,2.1975,2652.5
20.4838,5.576,2.198,2652.5
20.4840,6.424,2.198,2652.5
20.4842,5.66,2.198,2652.5
20.4844,5.528,2.1975,2652.5
20.4846,6.216,2.198,2652.5
20.4848,6.146,2.198,2652.5
20.4850,5.698,2.198,2652.5
20.4852,6.078,2.1975,2652.5
20.4854,5.822,2.198,2652.5
20.4856,5.838,2.1975,2652.5
20.4858,6.316,2.198,2652.5
20.4860,5.652,2.1975,2652.5
20.4862,5.846,2.198,2652.5
20.4864,6.24,2.198,2652.5
20.4866,5.466,2.1975,2652.5
20.4868,6.216,2.198,2652.5
20.4870,5.9,2.198,2652.5
20.4872,6.278,2.198,2652.5
20.4874,5.236,2.198,2652.5
20.4876,6.262,2.1975,2652.5
20.4878,5.714,2.198,2652.5
20.4880,6.132,2.1975,2652.5
20.4882,5.9,2.198,2652.5
20.4884,5.946,2.198,2652.5
20.4886,6,2.1975,2652.5
20.4888,5.814,2.198,2652.5
20.4890,5.922,2.198,2652.5
20.4892,6.186,2.198,2652.5
20.4894,5.792,2.1975,2652.5
20.4896,5.854,2.1975,2652.5
20.4898,5.838,2.198,2652.5
20.4900,5.914,2.1975,2652.5
20.4902,6.192,2.1985,2652.5
20.4904,6.008,2.198,2652.5
20.4906,5.69,2.1975,2652.5
20.4908,5.984,2.198,2652.5
20.4910,5.652,2.198,2652.5
20.4912,6.224,2.198,2652.5
20.4914,5.954,2.198,2652.5
20.4916,5.668,2.198,2652.5
20.4918,6.008,2.198,2652.5
20.4920,5.822,2.198,2652.5
20.4922,6.016,2.198,2652.5
20.4924,5.884,2.198,2652.5
20.4926,6.108,2.198,2652.5
20.4928,5.676,2.1975,2652.5
20.4930,6.008,2.198,2652.5
20.4932,6.092,2.198,2652.5
20.4934,5.968,2.198,2652.5
20.4936,5.684,2.1975,2652.5
20.4938,6.054,2.198,2652.5
20.4940,5.946,2.1975,2652.5
20.4942,6.03,2.198,2652.5
20.4944,6.046,2.1985,2652.5
20.4946,5.46,2.198,2652.5
20.4948,6.07,2.1975,2652.5
20.4950,5.976,2.198,2652.5
20.4952,6.038,2.198,2652.5
20.4954,6.154,2.1985,2652.5
20.4956,5.312,2.198,2652.5
20.4958,6.254,2.198,2652.5
20.4960,5.846,2.198,2652.5
20.4962,6.024,2.198,2652.5
20.4964,5.83,2.198,2652.5
20.4966,5.93,2.198,2652.5
20.4968,5.838,2.1975,2652.5
20.4970,6.03,2.198,2652.5
20.4972,6.054,2.198,2652.5
20.4974,6.124,2.1975,2652.5
20.4976,5.66,2.1975,2652.5
20.4978,6.108,2.1985,2652.5
20.4980,6.132,2.198,2652.5
20.4982,5.868,2.198,2652.5
20.4984,5.768,2.198,2652.5
20.4986,6.362,2.1975,2652.5
20.4988,5.506,2.198,2652.5
20.4990,6.054,2.198,2652.5
20.4992,5.93,2.198,2652.5
20.4994,6.054,2.198,2652.5
20.4996,5.398,2.1975,2652.5
20.4998,6.634,2.198,2652.5
20.5000,5.854,2.198,2652.5
20.5002,6.084,2.198,2652.5
20.5004,6.116,2.198,2652.5
20.5006,48,2.203,2652.5
20.5008,55.5,2.1995,2652.5
20.5010,7.12,2.198,2652.5
20.5012,6.054,2.1975,2652.5
20.5014,6.2,2.198,2652.5
20.5016,5.706,2.198,2652.5
20.5018,6.178,2.198,2652.5
20.5020,5.984,2.1985,2652.5
20.5022,6.038,2.198,2652.5
20.5024,5.668,2.1975,2652.5
20.5026,6.062,2.198,2652.5
20.5028,5.992,2.198,2652.5
20.5030,6.162,2.198,2652.5
20.5032,5.8,2.198,2652.5
20.5034,5.452,2.198,2652.5
20.5036,6.51,2.1975,2652.5
20.5038,5.746,2.198,2652.5
20.5040,5.83,2.198,2652.5
20.5042,6.254,2.198,2652.5
20.5044,5.908,2.198,2652.5
20.5046,5.784,2.198,2652.5
20.5048,6,2.198,2652.5
20.5050,6.038,2.198,2652.5
20.5052,5.992,2.198,2652.5
20.5054,6.146,2.198,2652.5
20.5056,5.76,2.198,2652.5
20.5058,6.07,2.198,2652.5
20.5060,5.514,2.198,2652.5
20.5062,6.17,2.198,2652.5
20.5064,5.69,2.1975,2652.5
20.5066,6.308,2.198,2652.5
20.5068,5.908,2.198,2652.5
20.5070,6.046,2.198,2652.5
20.5072,5.42,2.198,2652.5
20.5074,6.448,2.198,2652.5
20.5076,5.498,2.1975,2652.5
20.5078,5.992,2.198,2652.5
20.5080,6.356,2.198,2652.5
20.5082,5.582,2.198,2652.5
20.5084,5.598,2.198,2652.5
